FE Rotation (°),IE Rotation (°),VV Rotation (°),AP Translation (mm),ML Translation (mm),SI Translation (mm),Fx (N),Fy (N),Fz (N),Mx (Nm),My (Nm),Mz (Nm)
0,-0.664425,3.34156,-0.517314,0,0,-1.79294,-3.810735,68.4795,0.69452,-0.0300142,-0.223524
0.5,-0.367023762281472,3.40590924192812,-0.355679173105813,0,0,-1.93255738058917,-3.90308237291883,68.543204759625,0.69934781975,-0.03019114864225,-0.2254194075
1,-0.07832271763711,3.46842951595,-0.199398404693,0,0,-2.06466448610059,-3.9970817728024,68.635959389,0.704126979,-0.030329667638,-0.227314815
1.5,0.201863850598508,3.52915737560312,-0.0483432078208125,0,0,-2.18959928839804,-4.09239650257448,68.756987740875,0.70885747775,-0.03042946684075,-0.2292102225
2,0.47371864153248,3.588129016,0.0976136449120001,0,0,-2.30768769584595,-4.1887012600768,68.905522104,0.713539316,-0.030490256104,-0.23110563
2.5,0.737421365711914,3.64538027382812,0.238598121367188,0,0,-2.41924384399243,-4.28568199632813,69.080803203125,0.71817249375,-0.03051174528125,-0.2330010375
3,0.99314877412227,3.70094662735,0.374734929867,0,0,-2.5245703828163,-4.3830357737832,69.282080199,0.722757011,-0.030493644226,-0.234896445
3.5,1.24107468718569,3.75486319640312,0.506147519194188,0,0,-2.62395876053837,-4.48047062459178,69.508610688375,0.72729286775,-0.03043566279175,-0.2367918525
4,1.48137002375936,3.8071647424,0.632958078592,0,0,-2.71768950399693,-4.5777054088576,69.759660704,0.731780064,-0.030337510832,-0.23868726
4.5,1.7142028301338,3.85788566832812,0.755287537764188,0,0,-2.80603249558729,-4.67446967289743,70.034504714625,0.73621859975,-0.03019889820025,-0.2405826675
5,1.93973830903125,3.90706001875,0.873255566875,0,0,-2.88924724676563,-4.7705035075,70.332425625,0.740608475,-0.03001953475,-0.242478075
5.5,2.15813884860398,3.95472147980312,0.986980576549188,0,0,-2.9675831681169,-4.86555740618508,70.652714775875,0.74494968975,-0.02979913033475,-0.2443734825
6,2.36956405143264,4.0009033792,1.096579717872,0,0,-3.04127983598701,-4.9593921234624,70.994671944,0.749242244,-0.029537394808,-0.24626889
6.5,2.57417076352459,4.04563868622813,1.20216888238919,0,0,-3.11056725567906,-5.05177853309072,71.357605342125,0.75348613775,-0.02923403802325,-0.2481642975
7,2.77211310331223,4.08896001175,1.303862702107,0,0,-3.17566612121386,-5.1424974863368,71.740831619,0.757681371,-0.028888769834,-0.250059705
7.5,2.96354249065137,4.13089960820312,1.40177454949219,0,0,-3.23678807165454,-5.23133967023437,72.143675859375,0.76182794375,-0.02850130009375,-0.2519551125
8,3.14860767581952,4.1714893696,1.496016537472,0,0,-3.29413594399539,-5.3181054658432,72.565471584,0.765925856,-0.028071338656,-0.25385052
8.5,3.32745476851427,4.21076083152813,1.58669951943419,0,0,-3.34790402261482,-5.40260480650802,73.005560749625,0.76997510775,-0.02759859537425,-0.2557459275
9,3.50022726685161,4.24874517115,1.673933089227,0,0,-3.39827828529251,-5.4846570361176,73.463293749,0.773975699,-0.027082780102,-0.257641335
9.5,3.66706608636425,4.28547320720313,1.75782558115919,0,0,-3.44543664579077,-5.56409076736368,73.938029410875,0.77792762975,-0.02652360269275,-0.2595367425
10,3.828109589,4.3209754,1.83848407,0,0,-3.489549193,-5.64074374,74.429135,0.7818309,-0.025920773,-0.26143215
10.5,3.98349361212006,4.35528185142812,1.91601437097919,0,0,-3.53077842664837,-5.71446267910133,74.935986217125,0.78568550975,-0.02527400087725,-0.2633275575
11,4.13335149749739,4.38842230495,1.990521039787,0,0,-3.56927948957567,-5.7851031533224,75.457967199,0.789491459,-0.024582996178,-0.265222965
11.5,4.27781412031504,4.42042614560313,2.06210737257419,0,0,-3.60520039657132,-5.85252943315698,75.994470518375,0.79324874775,-0.02384746875575,-0.2671183725
12,4.41700991816448,4.4513224,2.130875405952,0,0,-3.63868225977651,-5.9166143491968,76.544897184,0.796957376,-0.023067128464,-0.26901378
12.5,4.55106492004395,4.48113973632812,2.19692591699219,0,0,-3.66985951065063,-5.97723915039063,77.108656640625,0.80061734375,-0.02224168515625,-0.2709091875
13,4.68010277535677,4.50990646435,2.260358423227,0,0,-3.69886011850174,-6.0342933623032,77.685166769,0.804228651,-0.021370848686,-0.272804595
13.5,4.80424478290973,4.53765053540313,2.32127118264919,0,0,-3.72580580558125,-6.08767464537428,78.273853885875,0.80779129775,-0.02045432890675,-0.2747000025
14,4.92360991991136,4.5643995424,2.379761193712,0,0,-3.75081225874285,-6.1372886531776,78.874152744,0.811305284,-0.019491835672,-0.27659541
14.5,5.03831487097033,4.59018071982812,2.43592419532919,0,0,-3.77398933766549,-6.18304889067993,79.485506532125,0.81477060975,-0.01848307883525,-0.2784908175
15,5.14847405709375,4.61502094375,2.489854666875,0,0,-3.79544127964063,-6.2248765725,80.107366875,0.818187275,-0.01742776825,-0.280386225
15.5,5.25419966468551,4.63894673180313,2.54164582818419,0,0,-3.81526690092358,-6.26270048116758,80.739193833375,0.82155527975,-0.01632561376975,-0.2822816325
16,5.35560167454464,4.6619842432,2.591389639552,0,0,-3.83355979464909,-6.2964568253824,81.380455904,0.824874624,-0.015176325248,-0.28417704
16.5,5.45278789086362,4.68415927872812,2.63917680173419,0,0,-3.85040852531106,-6.32608909827322,82.030630019625,0.82814530775,-0.01397961253825,-0.2860724475
17,5.54586397022673,4.70549728075,2.685096755947,0,0,-3.86589681980642,-6.3515479356568,82.689201549,0.831367331,-0.012735185494,-0.287967855
17.5,5.6349334506084,4.72602333320313,2.72923768386719,0,0,-3.88010375504321,-6.37279097429687,83.355664296875,0.83454069375,-0.01144275396875,-0.2898632625
18,5.72009778037152,4.7457621616,2.771686507632,0,0,-3.89310394211283,-6.3897827101632,84.029520504,0.837665396,-0.010102027816,-0.29175867
18.5,5.8014563472658,4.76473813302812,2.81252888983919,0,0,-3.90496770702642,-6.40249435669053,84.710280847125,0.84074143775,-0.00871271688925001,-0.2936540775
19,0.0776501601603066,0.0182371231218754,0.0393203437078125,0,0,-3.91576126801543,-6.4109037030376,85.397464439,0.843768819,-0.007274531042,-0.295549485
19.5,0.151687267104981,0.0357590481750005,0.077201792434999,0,0,-3.92554690939644,-6.41499497234617,86.090598828375,0.84674753975,-0.00578718012775001,-0.2974448925
20,0.222204700734196,0.0525890669718754,0.113726230160813,0,0,-3.934383152,-6.41475868,86.78922,0.8496776,-0.004250374,-0.2993403
20.5,0.289293896328287,0.0687501129000001,0.148974281325001,0,0,-3.94232492016377,-6.41019149188382,87.492872374625,0.85255899975,-0.00266382251225,-0.3012357075
21,0.353044373546087,0.084264760921875,0.183025310827812,0,0,-3.94942370528975,-6.4012960826424,88.201108809,0.855391739,-0.001027235518,-0.303131115
21.5,0.413543765423269,0.0991552275750003,0.215957424029999,0,0,-3.95572772596578,-6.38808099393947,88.913490595875,0.85817581775,0.000659677129249997,-0.3050265225
22,0.470877847370677,0.113443370971875,0.247847466752813,0,0,-3.96128208465107,-6.3705604927168,89.629587464,0.860911236,0.00239720557599999,-0.30692193
22.5,0.525130566172672,0.1271506908,0.278771025278001,0,0,-3.96612892092603,-6.34875442945313,90.348977578125,0.86359799375,0.00418563996874999,-0.3088173375
23,0.576384068985465,0.140298328321875,0.308802426347812,0,0,-3.97030756130618,-6.3226880964232,91.071247539,0.866236091,0.006025270454,-0.310712745
23.5,0.624718732335454,0.152907066375001,0.338014737165,0,0,-3.97385466562032,-6.29239208595678,91.795992383375,0.86882552775,0.00791638717825,-0.3126081525
24,0.670213191117558,0.164997329371875,0.366479765392813,0,0,-3.97680436995277,-6.2579021486976,92.522815584,0.871366304,0.00985928028799999,-0.31450356
24.5,0.712944367593559,0.1765891833,0.394268059155001,0,0,-3.97918842614988,-6.21925905186242,93.251329049625,0.87385841975,0.01185423992975,-0.3163989675
25,0.752987500390446,0.187702335721875,0.421448907035813,0,0,-3.98103633789062,-6.1765084375,93.981153125,0.876301875,0.01390155625,-0.318294375
25.5,0.790416173498741,0.198356135775001,0.44809033808,0,0,-3.98237549332144,-6.12970068075007,94.711916590875,0.87869666975,0.01600151939525,-0.3201897825
26,0.825302345270838,0.208569574171875,0.474259121792813,0,0,-3.98323129425517,-6.0788907481024,95.443256664,0.881042804,0.018154419512,-0.32208519
26.5,0.857716377419345,0.2183612832,0.500020768140002,0,0,-3.98362728193424,-6.02413805565572,96.174818997125,0.88334027775,0.02036054674675,-0.3239805975
27,0.887727064015429,0.227749536721875,0.525439527547813,0,0,-3.98358525935798,-5.9655063273768,96.906257679,0.885589091,0.022620191246,-0.325876005
27.5,0.915401660487127,0.236752250175,0.550578390903,0,0,-3.98312541017407,-5.90306345335938,97.637235234375,0.88778924375,0.02493364315625,-0.3277714125
28,0.940805912617716,0.245386980571875,0.575499089552812,0,0,-3.98226641413427,-5.8368813480832,98.367422624,0.889940736,0.027301192624,-0.32966682
28.5,0.96400408554403,0.2536709265,0.600262095305001,0,0,-3.9810255591142,-5.76703580867302,99.096499244625,0.89204356775,0.02972312979575,-0.3315622275
29,0.985058992754805,0.261620928121875,0.624926620427813,0,0,-3.97941884969735,-5.6936063731576,99.824152929,0.894097739,0.032199744818,-0.333457635
29.5,1.00403202508901,0.269253467175,0.64955061765,0,0,-3.9774611123233,-5.61667617872867,100.550079945875,0.89610324975,0.03473132783725,-0.3353530425
30,1.02098317973419,0.276584666971875,0.674190780160813,0,0,-3.975166097,-5.53633182,101.273985,0.8980601,0.037318169,-0.33724845
30.5,1.03597108922482,0.2836302924,0.698902541610001,0,0,-3.97254657558035,-5.45266320726632,101.995581232125,0.89996828975,0.03996055845275,-0.3391438575
31,1.04905305044059,0.290405749921876,0.723740076107813,0,0,-3.96961443660283,-5.3657634247624,102.714590219,0.901827819,0.042658786342,-0.341039265
31.5,1.0602850536048,0.296926087575001,0.748756298225,0,0,-3.96638077669644,-5.27572858892197,103.430741973375,0.90363868775,0.04541314281425,-0.3429346725
32,1.06972181128268,0.303205994971876,0.774002862992814,0,0,-3.96285598854963,-5.1826577066368,104.143774944,0.905400896,0.048223918016,-0.34483008
32.5,1.0774167873797,0.3092598033,0.799530165903001,0,0,-3.95904984544361,-5.08665253351562,104.853436015625,0.90711444375,0.05109140209375,-0.3467254875
33,1.08342222613997,0.315101485321875,0.825387342907815,0,0,-3.95497158234962,-4.9878174321432,105.559480509,0.908779331,0.054015885194,-0.348620895
33.5,1.08778918114448,0.320744655375,0.851622270420001,0,0,-3.95062997359057,-4.88625923033927,106.261672180875,0.91039555775,0.05699765746325,-0.3505163025
34,1.09056754430956,0.326202569371874,0.878281565312815,0,0,-3.94603340706669,-4.7820870794176,106.959783224,0.911963124,0.060037009048,-0.35241171
34.5,1.09180607488509,0.3314881248,0.905410584920002,0,0,-3.94118995504546,-4.67541231244492,107.653594267125,0.91348202975,0.06313423009475,-0.3543071175
35,1.09155242845295,0.336613860721875,0.933053427035813,0,0,-3.93610744151563,-4.5663483025,108.342894375,0.914952275,0.06628961075,-0.356202525
35.5,1.08985318592527,0.341591957775,0.961252929915001,0,0,-3.93079350610549,-4.45501032093257,109.027481048375,0.91637385975,0.06950344116025,-0.3580979325
36,1.08675388254284,0.346434238171875,0.990050672272814,0,0,-3.92525566456525,-4.3415153956224,109.707160224,0.917746784,0.072776011472,-0.35999334
36.5,1.08229903687338,0.3511521657,1.019486973285,0,0,-3.91950136581362,-4.22598216923822,110.381746274625,0.91907104775,0.07610761183175,-0.3618887475
37,1.07653217980992,0.355756845721874,1.04960089258782,0,0,-3.91353804554854,-4.1085307574968,111.051062009,0.920346651,0.079498532386,-0.363784155
37.5,1.06949588356916,0.360259025174999,1.080430230278,0,0,-3.90737317642213,-3.98928260742188,111.714938671875,0.92157359375,0.08294906328125,-0.3656795625
38,1.06123179068971,0.364669092571877,1.11201152691281,0,0,-3.90101431477972,-3.86836035560319,112.373215944,0.922751876,0.086459494664,-0.36757497
38.5,1.05178064303056,0.368997078,1.14438006351,0,0,-3.89446914396317,-3.74588768645553,113.025741942125,0.92388149775,0.09003011668075,-0.3694703775
39,1.0411823107693,0.373252653121876,1.17756986154781,0,0,-3.88774551417828,-3.6219891904776,113.672373219,0.924962459,0.093661219478,-0.371365785
39.5,1.02947582140054,0.377445131175,1.211613682965,0,0,-3.88085147892635,-3.49679022251117,114.312974763375,0.92599475975,0.09735309320225,-0.3732611925
40,1.01669938873419,0.381583466971875,1.24654303016082,0,0,-3.87379532800001,-3.37041676,114.94742,0.9269784,0.101106028,-0.3751566
40.5,1.00289044189385,0.3856762569,1.282388145995,0,0,-3.86658561704312,-3.24299526124882,115.575590789625,0.92791337975,0.10492031401775,-0.3770520075
41,0.988085654315086,0.389731738921875,1.31917801378782,0,0,-3.85923119367492,-3.1146525236824,116.197377429,0.928799699,0.108796241402,-0.378947415
41.5,0.972320972743827,0.393757792575,1.35694035732,0,0,-3.85174122017828,-2.98551554210447,116.812678650875,0.92963735775,0.11273410029925,-0.3808428225
42,0.955631646234679,0.397761938971875,1.39570164083281,0,0,-3.8441251927522,-2.8557113669568,117.421401624,0.930426356,0.116734180856,-0.38273823
42.5,0.938052255149238,0.401751340800001,1.435487069028,0,0,-3.83639295732838,-2.72536696257812,118.023461953125,0.93116669375,0.12079677321875,-0.3846336375
43,0.919616740154467,0.405732802321875,1.47632058706781,0,0,-3.82855472195206,-2.5946090654632,118.618783679,0.931858371,0.124922167534,-0.386529045
43.5,0.900358431221015,0.409712769375,1.518224880575,0,0,-3.82062106572701,-2.46356404252177,119.207299278375,0.93250138775,0.12911065394825,-0.3884244525
44,0.880310076621551,0.413697329371875,1.56122137563281,0,0,-3.81260294432461,-2.3323577493376,119.788949664,0.933095744,0.133362522608,-0.39031986
44.5,0.859503871929125,0.4176922113,1.605330238785,0,0,-3.80451169205723,-2.20111538842742,120.363684184625,0.93364143975,0.13767806365975,-0.3922152675
45,0.837971489015445,0.421702785721875,1.65057037703581,0,0,-3.79635902051563,-2.06996136749999,120.931460625,0.934138475,0.14205756725,-0.394110675
45.5,0.815744105049301,0.425734064775,1.69695943785,0,0,-3.78815701377073,-1.93901915771507,121.492245205875,0.93458684975,0.14650132352525,-0.3960060825
46,0.792852431494833,0.429790702171877,1.74451380915281,0,0,-3.77991812013934,-1.80841115194239,122.046012584,0.934986564,0.151009622632,-0.39790149
46.5,0.769326743109904,0.4338769932,1.79324861933,0,0,-3.77165514051418,-1.67825852302073,122.592745852125,0.93533761775,0.15558275471675,-0.3997968975
47,0.745196906944425,0.437996874721875,1.84317773722781,0,0,-3.76338121325811,-1.5486810820168,123.132436539,0.935640011,0.160221009926,-0.401692305
47.5,0.720492411338686,0.442153925175001,1.894313772153,0,0,-3.75510979566236,-1.41979713648437,123.665084609375,0.93589374375,0.16492467840625,-0.4035877125
48,0.695242394921717,0.446351364571877,1.94666807387281,0,0,-3.74685464196916,-1.2917233487232,124.190698464,0.936098816,0.169694050304,-0.40548312
48.5,0.66947567560959,0.4505920545,2.000250732615,0,0,-3.73862977795834,-1.16457459403802,124.709294939625,0.93625522775,0.17452941576575,-0.4073785275
49,0.643220779603805,0.454878498121877,2.05507057906782,0,0,-3.7304494720982,-1.0384638189976,125.220899309,0.936362979,0.179431064938,-0.409273935
49.5,0.616505970389579,0.459212840175001,2.11113518438,0,0,-3.72232820326058,-0.91350189969367,125.725545280875,0.93642206975,0.18439928796725,-0.4111693425
50,0.589359277734193,0.463596866971876,2.16845086016082,0,0,-3.714280625,-0.789797499999991,126.223275,0.9364325,0.189434375,-0.41306475
50.5,0.561808526685379,0.468032006400001,2.22702265848,0,0,-3.70632152639709,-0.667456929831318,126.714139047125,0.93639426975,0.19453661618275,-0.4149601575
51,0.533881366569585,0.472519327921876,2.28685437186781,0,0,-3.698465789466,-0.546584003402388,127.198196439,0.936307379,0.199706301662,-0.416855565
51.5,0.505605299990361,0.477059542575001,2.347948533315,0,0,-3.69072834312633,-0.427279897486974,127.675514628375,0.93617182775,0.20494372158425,-0.4187509725
52,0.477007711826683,0.481653002971877,2.41030641627281,0,0,-3.68312411373876,-0.309643009676802,128.146169504,0.935987616,0.210249166096,-0.42064638
52.5,0.448115898231265,0.4862997033,2.473928034653,0,0,-3.67566797220533,-0.19376881664062,128.610245390625,0.93575474375,0.21562292534375,-0.4225417875
53,0.418957095628961,0.490999279321876,2.53881214282782,0,0,-3.66837467763352,-0.0797497323831955,129.067835049,0.935473211,0.221065289474,-0.424437195
53.5,0.389558509715048,0.495751008375001,2.60495623563001,0,0,-3.66125881756464,0.0323250334957201,129.519039675875,0.93514301775,0.22657654863325,-0.4263326025
54,0.359947344453559,0.500553809371876,2.67235654835282,0,0,-3.65433474476655,0.142369617542402,129.963968904,0.934764164,0.232156992968,-0.42822801
54.5,0.330150831075652,0.505406242800001,2.74100805675,0,0,-3.64761651059018,0.250301644190076,130.402740802125,0.93433664975,0.23780691262475,-0.4301234175
55,0.300196257077946,0.510306510721875,2.81090447703582,0,0,-3.64111779489064,0.356042367499997,130.835481875,0.933860475,0.24352659775,-0.432018825
55.5,0.270110995220833,0.515252456775,2.882038265885,0,0,-3.63485183251216,0.459516812902432,131.262327063375,0.93333563975,0.24931633849025,-0.4339142325
56,0.23992253252683,0.520241566171876,2.95440062043281,0,0,-3.62883133633743,0.5606539189376,131.683419744,0.932762144,0.255176424992,-0.43580964
56.5,0.209658499278934,0.525270965700003,3.02798147827501,0,0,-3.62306841690094,0.65938667899677,132.098911729625,0.93213998775,0.26110714740175,-0.4377050475
57,0.179346698018922,0.530337423721877,3.10276951746782,0,0,-3.61757449856668,0.755652283063201,132.508963269,0.931469171,0.267108795866,-0.439600455
57.5,0.149015132545717,0.535437350175,3.178752156528,0,0,-3.61236023226979,0.849392259453122,132.913743046875,0.93074969375,0.27318166053125,-0.4414958625
58,0.118692036913707,0.540566796571875,3.25591555443281,0,0,-3.60743540482259,0.940552616556806,133.313428184,0.929981556,0.279326031544,-0.44339127
58.5,0.0884059044311236,0.545721456000001,3.33424461062,0,0,-3.60280884478469,1.02908398457949,133.708204237125,0.92916475775,0.28554219905075,-0.4452866775
59,0.0581855166583019,0.550896663121877,3.41372296498781,0,0,-3.59848832489712,1.11494175728241,134.098265199,0.928299299,0.291830453198,-0.447182085
59.5,0.0280599724061084,0.556087394175,3.494332997895,0,0,-3.59448046108101,1.19808623372383,134.483813498375,0.92738517975,0.29819108413225,-0.4490774925
60,-0.00194128326580412,0.561288266971877,3.57605583016081,0,0,-3.59079060800002,1.27848276,134.86506,0.9264224,0.304624382,-0.4509729
60.5,-0.031788430050586,0.566493540900002,3.65887132306501,0,0,-3.58742275118725,1.35610187098618,135.242224004625,0.92541095975,0.31113063694775,-0.4528683075
61,-0.0614512433959113,0.571697116921875,3.74275807834782,0,0,-3.5843793957361,1.4309194320776,135.615533249,0.924350859,0.317710139122,-0.454763715
61.5,-0.0908990655056137,0.576892537575,3.82769343821,0,0,-3.58166145155554,1.50291678093053,135.985223905875,0.92324209775,0.32436317866925,-0.4566591225
62,-0.120100776341328,0.582072986971875,3.91365348531282,0,0,-3.57926811518933,1.5720808692032,136.351540584,0.922084676,0.331090045736,-0.45855453
62.5,-0.149024764624205,0.5872312908,4.000613042778,0,0,-3.57719674819946,1.63840440429687,136.714736328125,0.92087859375,0.33789103046875,-0.4604499375
63,-0.177638898836531,0.592359916321875,4.08854567418782,0,0,-3.57544275211397,1.7018859910968,137.075072619,0.919623851,0.344766423014,-0.462345345
63.5,-0.205910498223428,0.597450972374999,4.177423683585,0,0,-3.57399943993848,1.76253027371323,137.432819373375,0.91832044775,0.35171651351825,-0.4642407525
64,-0.233806303794449,0.602496209371877,4.26721811547282,0,0,-3.57285790423247,1.8203480772224,137.788254944,0.916968384,0.358741592128,-0.46613616
64.5,-0.261292449325307,0.607487019300002,4.35789875481501,0,0,-3.57200688174935,1.87535654940759,138.141666119625,0.91556765975,0.36584194898975,-0.4680315675
65,-0.288334432359573,0.612414435721876,4.44943412703582,0,0,-3.57143261464064,1.92757930250002,138.493348125,0.914118275,0.37301787425,-0.469926975
