FE Rotation (°),IE Rotation (°),VV Rotation (°),AP Translation (mm),ML Translation (mm),SI Translation (mm),Fx (N),Fy (N),Fz (N),Mx (Nm),My (Nm),Mz (Nm)
0,-0.62987,10.6832,-0.517314,-3.68939,20,-1.79294,-3.810735,68.4795,0.69452,-0.0300142,-0.223524
0.25,-0.486030278126758,10.715605040551,-0.435819249608176,-3.65545115624844,19.9939043573368,-1.79294,-3.810735,68.4795,0.69452,-0.0300142,-0.223524
0.5,-0.344076243778125,10.7475482419406,-0.355679173105813,-3.6217664774875,19.9880425696386,-1.79294,-3.810735,68.4795,0.69452,-0.0300142,-0.223524
0.75,-0.203993136079883,10.7790342069728,-0.276877591543488,-3.58833499245781,19.9824131938422,-1.79294,-3.810735,68.4795,0.69452,-0.0300142,-0.223524
1,-0.06576625045,10.81006751605,-0.199398404693,-3.5551557299,19.9770147822174,-1.79294,-3.810735,68.4795,0.69452,-0.0300142,-0.223524
1.25,0.0706190614013673,10.8406527271729,-0.123225591047363,-3.52222771855469,19.9718458823667,-1.79294,-3.810735,68.4795,0.69452,-0.0300142,-0.223524
1.5,0.205177391471875,10.8707943759406,-0.0483432078208125,-3.4895499871625,19.9669050372256,-1.79294,-3.810735,68.4795,0.69452,-0.0300142,-0.223524
1.75,0.337923275466992,10.900496975551,0.0252646090511993,-3.45712156446406,19.9621907850624,-1.79294,-3.810735,68.4795,0.69452,-0.0300142,-0.223524
2,0.4688711928,10.9297650168,0.0976136449120001,-3.4249414792,19.9577016594784,-1.79294,-3.810735,68.4795,0.69452,-0.0300142,-0.223524
2.25,0.598035566591992,10.9586029680822,0.168719606383699,-3.39300876011094,19.9534361894077,-1.79294,-3.810735,68.4795,0.69452,-0.0300142,-0.223524
2.5,0.725430763671875,10.9870152753906,0.238598121367188,-3.3613224359375,19.9493928991172,-1.79294,-3.810735,68.4795,0.69452,-0.0300142,-0.223524
2.75,0.851071094576367,11.0150063623166,0.307264739042137,-3.32988153542031,19.9455703082068,-1.79294,-3.810735,68.4795,0.69452,-0.0300142,-0.223524
3,0.97497081355,11.04258063005,0.374734929867,-3.2986850873,19.9419669316094,-1.79294,-3.810735,68.4795,0.69452,-0.0300142,-0.223524
3.25,1.09714411854512,11.0697424573791,0.441024085579012,-3.26773212031719,19.9385812795905,-1.79294,-3.810735,68.4795,0.69452,-0.0300142,-0.223524
3.5,1.21760515122187,11.0964962006906,0.506147519194188,-3.2370216632125,19.9354118577486,-1.79294,-3.810735,68.4795,0.69452,-0.0300142,-0.223524
3.75,1.33636799694824,11.1228461939697,0.570120465007324,-3.20655274472656,19.9324571670151,-1.79294,-3.810735,68.4795,0.69452,-0.0300142,-0.223524
4,1.4534466848,11.1487967488,0.632958078592,-3.1763243936,19.9297157036544,-1.79294,-3.810735,68.4795,0.69452,-0.0300142,-0.223524
4.25,1.56885518756074,11.1743521543635,0.694675436800574,-3.14633563857344,19.9271859592635,-1.79294,-3.810735,68.4795,0.69452,-0.0300142,-0.223524
4.5,1.68260742172188,11.1995166774406,0.755287537764188,-3.1165855083875,19.9248664207726,-1.79294,-3.810735,68.4795,0.69452,-0.0300142,-0.223524
4.75,1.79471724748262,11.2242945624103,0.814809300892762,-3.08707303178281,19.9227555704445,-1.79294,-3.810735,68.4795,0.69452,-0.0300142,-0.223524
5,1.90519846875,11.24869003125,0.873255566875,-3.0577972375,19.920851885875,-1.79294,-3.810735,68.4795,0.69452,-0.0300142,-0.223524
5.25,2.01406483313887,11.2727072835354,0.930641097678387,-3.02875715427969,19.9191538399928,-1.79294,-3.810735,68.4795,0.69452,-0.0300142,-0.223524
5.5,2.12133003197188,11.2963504964406,0.986980576549188,-2.9999518108625,19.9176599010596,-1.79294,-3.810735,68.4795,0.69452,-0.0300142,-0.223524
5.75,2.22700770027949,11.3196238247385,1.04228860801245,-2.97138023598906,19.9163685326697,-1.79294,-3.810735,68.4795,0.69452,-0.0300142,-0.223524
6,2.3311114168,11.3425314008,1.096579717872,-2.9430414584,19.9152781937504,-1.79294,-3.810735,68.4795,0.69452,-0.0300142,-0.223524
6.25,2.43365470397949,11.3650773345947,1.14986835321045,-2.91493450683594,19.914387338562,-1.79294,-3.810735,68.4795,0.69452,-0.0300142,-0.223524
6.5,2.53465102797188,11.3872657136906,1.20216888238919,-2.8870584100375,19.9136944166976,-1.79294,-3.810735,68.4795,0.69452,-0.0300142,-0.223524
6.75,2.63411379863887,11.4091006032541,1.25349559504839,-2.85941219674531,19.9131978730831,-1.79294,-3.810735,68.4795,0.69452,-0.0300142,-0.223524
7,2.73205636955,11.43058604605,1.303862702107,-2.8319948957,19.9128961479774,-1.79294,-3.810735,68.4795,0.69452,-0.0300142,-0.223524
7.25,2.82849203798262,11.4517260624416,1.35328433576276,-2.80480553564219,19.9127876769722,-1.79294,-3.810735,68.4795,0.69452,-0.0300142,-0.223524
7.5,2.92343404492188,11.4725246503906,1.40177454949219,-2.7778431453125,19.9128708909922,-1.79294,-3.810735,68.4795,0.69452,-0.0300142,-0.223524
7.75,3.01689557506074,11.4929857854572,1.44934731805057,-2.75110675345156,19.9131442162948,-1.79294,-3.810735,68.4795,0.69452,-0.0300142,-0.223524
8,3.1088897568,11.5131134208,1.496016537472,-2.7245953888,19.9136060744704,-1.79294,-3.810735,68.4795,0.69452,-0.0300142,-0.223524
8.25,3.19942966224824,11.532911487176,1.54179602506932,-2.69830808009844,19.9142548824423,-1.79294,-3.810735,68.4795,0.69452,-0.0300142,-0.223524
8.5,3.28852830722188,11.5523838929406,1.58669951943419,-2.6722438560875,19.9150890524666,-1.79294,-3.810735,68.4795,0.69452,-0.0300142,-0.223524
8.75,3.37619865124512,11.5715345240478,1.63074068043701,-2.64640174550781,19.9161069921323,-1.79294,-3.810735,68.4795,0.69452,-0.0300142,-0.223524
9,3.46245359755,11.59036724405,1.673933089227,-2.6207807771,19.9173071043614,-1.79294,-3.810735,68.4795,0.69452,-0.0300142,-0.223524
9.25,3.54730599307637,11.6088858940978,1.71629024823214,-2.59537997960469,19.9186877874086,-1.79294,-3.810735,68.4795,0.69452,-0.0300142,-0.223524
9.5,3.63076862847188,11.6270942929406,1.75782558115919,-2.5701983817625,19.9202474348616,-1.79294,-3.810735,68.4795,0.69452,-0.0300142,-0.223524
9.75,3.71285423809199,11.644996236926,1.7985524329937,-2.54523501231406,19.9219844356409,-1.79294,-3.810735,68.4795,0.69452,-0.0300142,-0.223524
10,3.7935755,11.6625955,1.83848407,-2.5204889,19.923897174,-1.79294,-3.810735,68.4795,0.69452,-0.0300142,-0.223524
10.25,3.87294503596699,11.6798958337072,1.8776336797212,-2.49595907356094,19.9259840295252,-1.79294,-3.810735,68.4795,0.69452,-0.0300142,-0.223524
10.5,3.95097541147188,11.6969009671906,1.91601437097919,-2.4716445617375,19.9282433771356,-1.79294,-3.810735,68.4795,0.69452,-0.0300142,-0.223524
10.75,4.02767913570137,11.7136146071916,1.95363917387464,-2.44754439327031,19.9306735870833,-1.79294,-3.810735,68.4795,0.69452,-0.0300142,-0.223524
11,4.10306866155,11.73004043805,1.990521039787,-2.4236575969,19.9332730249534,-1.79294,-3.810735,68.4795,0.69452,-0.0300142,-0.223524
11.25,4.17715638562012,11.7461821217041,2.02667284137451,-2.39998320136718,19.9360400516636,-1.79294,-3.810735,68.4795,0.69452,-0.0300142,-0.223524
11.5,4.24995464822188,11.7620432976906,2.06210737257419,-2.3765202354125,19.9389730234646,-1.79294,-3.810735,68.4795,0.69452,-0.0300142,-0.223524
11.75,4.32147573337324,11.7776275831447,2.09683734860182,-2.35326772777656,19.94207029194,-1.79294,-3.810735,68.4795,0.69452,-0.0300142,-0.223524
12,4.3917318688,11.7929385728,2.130875405952,-2.33022470719999,19.9453302040064,-1.79294,-3.810735,68.4795,0.69452,-0.0300142,-0.223524
12.25,4.46073522593574,11.8079798389885,2.16423410239808,-2.30739020242343,19.948751101913,-1.79294,-3.810735,68.4795,0.69452,-0.0300142,-0.223524
12.5,4.52849791992188,11.8227549316406,2.19692591699219,-2.28476324218749,19.9523313232422,-1.79294,-3.810735,68.4795,0.69452,-0.0300142,-0.223524
12.75,4.59503200960762,11.8372673782854,2.22896325006526,-2.26234285523281,19.956069200909,-1.79294,-3.810735,68.4795,0.69452,-0.0300142,-0.223524
13,4.66034949755,11.85152068405,2.260358423227,-2.24012807029999,19.9599630631614,-1.79294,-3.810735,68.4795,0.69452,-0.0300142,-0.223524
13.25,4.72446233001387,11.8655183316604,2.29112367936589,-2.21811791612968,19.9640112335803,-1.79294,-3.810735,68.4795,0.69452,-0.0300142,-0.223524
13.5,4.78738239697187,11.8792637814406,2.32127118264919,-2.19631142146249,19.9682120310796,-1.79294,-3.810735,68.4795,0.69452,-0.0300142,-0.223524
13.75,4.84912153210449,11.8927604713135,2.35081301852295,-2.17470761503905,19.9725637699058,-1.79294,-3.810735,68.4795,0.69452,-0.0300142,-0.223524
14,4.9096915128,11.9060118168,2.379761193712,-2.15330552559999,19.9770647596384,-1.79294,-3.810735,68.4795,0.69452,-0.0300142,-0.223524
14.25,4.96910406015449,11.9190212110197,2.40812763621995,-2.13210418188593,19.9817133051899,-1.79294,-3.810735,68.4795,0.69452,-0.0300142,-0.223524
14.5,5.02737083897188,11.9317920246906,2.43592419532919,-2.11110261263749,19.9865077068056,-1.79294,-3.810735,68.4795,0.69452,-0.0300142,-0.223524
14.75,5.08450345776387,11.9443276061291,2.46316264160089,-2.0902998465953,19.9914462600636,-1.79294,-3.810735,68.4795,0.69452,-0.0300142,-0.223524
15,5.14051346875,11.95663128125,2.489854666875,-2.06969491249999,19.996527255875,-1.79294,-3.810735,68.4795,0.69452,-0.0300142,-0.223524
15.25,5.19541236785762,11.9687063535666,2.51601188427026,-2.04928683909217,20.0017489804837,-1.79294,-3.810735,68.4795,0.69452,-0.0300142,-0.223524
15.5,5.24921159472188,11.9805561041906,2.54164582818419,-2.02907465511249,20.0071097154666,-1.79294,-3.810735,68.4795,0.69452,-0.0300142,-0.223524
15.75,5.30192253268574,11.9921837918322,2.56676795429307,-2.00905738930155,20.0126077377333,-1.79294,-3.810735,68.4795,0.69452,-0.0300142,-0.223524
16,5.3535565088,12.0035926528,2.591389639552,-1.98923407039998,20.0182413195264,-1.79294,-3.810735,68.4795,0.69452,-0.0300142,-0.223524
16.25,5.40412479382324,12.014785901001,2.61552218219482,-1.96960372714842,20.0240087284214,-1.79294,-3.810735,68.4795,0.69452,-0.0300142,-0.223524
16.5,5.45363860222187,12.0257667279406,2.63917680173419,-1.95016538828748,20.0299082273266,-1.79294,-3.810735,68.4795,0.69452,-0.0300142,-0.223524
16.75,5.50210909217012,12.0365383027228,2.66236463896151,-1.93091808255779,20.0359380744832,-1.79294,-3.810735,68.4795,0.69452,-0.0300142,-0.223524
17,5.54954736555,12.04710377205,2.685096755947,-1.91186083869998,20.0420965234654,-1.79294,-3.810735,68.4795,0.69452,-0.0300142,-0.223524
17.25,5.59596446795137,12.0574662602228,2.70738413603964,-1.89299268545467,20.0483818231801,-1.79294,-3.810735,68.4795,0.69452,-0.0300142,-0.223524
17.5,5.64137138867187,12.0676288691406,2.72923768386719,-1.87431265156248,20.0547922178672,-1.79294,-3.810735,68.4795,0.69452,-0.0300142,-0.223524
17.75,5.68577906071699,12.077594678301,2.7506682253362,-1.85581976576404,20.0613259470994,-1.79294,-3.810735,68.4795,0.69452,-0.0300142,-0.223524
18,5.7291983608,12.0873667448,2.771686507632,-1.83751305679997,20.0679812457824,-1.79294,-3.810735,68.4795,0.69452,-0.0300142,-0.223524
18.25,5.77164010934199,12.0969481033322,2.7923031992187,-1.81939155341091,20.0747563441547,-1.79294,-3.810735,68.4795,0.69452,-0.0300142,-0.223524
18.5,5.81311507047188,12.1063417661906,2.81252888983919,-1.80145428433747,20.0816494677876,-1.79294,-3.810735,68.4795,0.69452,-0.0300142,-0.223524
18.75,5.85363395202637,12.1155507232666,2.83237409051514,-1.78370027832028,20.0886588375854,-1.79294,-3.810735,68.4795,0.69452,-0.0300142,-0.223524
19,5.89320740555,12.12457794205,2.851849233547,-1.76612856409997,20.0957826697854,-1.79294,-3.810735,68.4795,0.69452,-0.0300142,-0.223524
19.25,5.93184602629512,12.1334263676291,2.87096467251401,-1.74873817041715,20.1030191759575,-1.79294,-3.810735,68.4795,0.69452,-0.0300142,-0.223524
19.5,5.96956035322188,12.1420989226906,2.88973068227419,-1.73152812601246,20.1103665630046,-1.79294,-3.810735,68.4795,0.69452,-0.0300142,-0.223524
19.75,6.00636086899824,12.1505985075197,2.90815745896433,-1.71449745962653,20.1178230331625,-1.79294,-3.810735,68.4795,0.69452,-0.0300142,-0.223524
20,6.042258,12.158928,2.92625512,-1.69764519999996,20.125386784,-1.79294,-3.810735,68.4795,0.69452,-0.0300142,-0.223524
20.25,6.07726211631074,12.1670902556135,2.94403370407558,-1.6809703758734,20.1330560084185,-1.79294,-3.810735,68.4795,0.69452,-0.0300142,-0.223524
20.5,6.11138353172188,12.1750881074406,2.96150317116419,-1.66447201598746,20.1408288946526,-1.79294,-3.810735,68.4795,0.69452,-0.0300142,-0.223524
20.75,6.14463250373262,12.1829243661603,2.97867340251776,-1.64814914908277,20.1487036262695,-1.79294,-3.810735,68.4795,0.69452,-0.0300142,-0.223524
21,6.17701923355,12.19060182005,2.995554200667,-1.63200080389995,20.1566783821694,-1.79294,-3.810735,68.4795,0.69452,-0.0300142,-0.223524
21.25,6.20855386608887,12.1981232349853,3.01215528942139,-1.61602600917964,20.1647513365854,-1.79294,-3.810735,68.4795,0.69452,-0.0300142,-0.223524
21.5,6.23924648997188,12.2054913544406,3.02848631386919,-1.60022379366245,20.1729206590836,-1.79294,-3.810735,68.4795,0.69452,-0.0300142,-0.223524
21.75,6.26910713752949,12.2127088994885,3.04455684037745,-1.58459318608901,20.1811845145627,-1.79294,-3.810735,68.4795,0.69452,-0.0300142,-0.223524
22,6.2981457848,12.2197785688,3.060376356592,-1.56913321519994,20.1895410632544,-1.79294,-3.810735,68.4795,0.69452,-0.0300142,-0.223524
22.25,6.32637235152949,12.2267030386447,3.07595427143745,-1.55384290973588,20.1979884607234,-1.79294,-3.810735,68.4795,0.69452,-0.0300142,-0.223524
22.5,6.35379670117188,12.2334849628906,3.09129991511719,-1.53872129843744,20.2065248578672,-1.79294,-3.810735,68.4795,0.69452,-0.0300142,-0.223524
22.75,6.38042864088887,12.2401269730041,3.10642253911339,-1.52376741004525,20.2151484009161,-1.79294,-3.810735,68.4795,0.69452,-0.0300142,-0.223524
23,6.40627792155,12.24663167805,3.121331316187,-1.50898027329993,20.2238572314334,-1.79294,-3.810735,68.4795,0.69452,-0.0300142,-0.223524
23.25,6.43135423773262,12.2530016646916,3.13603534037776,-1.49435891694212,20.2326494863152,-1.79294,-3.810735,68.4795,0.69452,-0.0300142,-0.223524
23.5,6.45566722772188,12.2592394971906,3.15054362700419,-1.47990236971243,20.2415232977906,-1.79294,-3.810735,68.4795,0.69452,-0.0300142,-0.223524
23.75,6.47922647351074,12.2653477174072,3.16486511266358,-1.46560966035149,20.2504767934214,-1.79294,-3.810735,68.4795,0.69452,-0.0300142,-0.223524
24,6.5020415008,12.2713288448,3.179008655232,-1.45147981759992,20.2595080961024,-1.79294,-3.810735,68.4795,0.69452,-0.0300142,-0.223524
24.25,6.52412177899824,12.277185376426,3.19298303386433,-1.43751187019835,20.2686153240613,-1.79294,-3.810735,68.4795,0.69452,-0.0300142,-0.223524
24.5,6.54547672122187,12.2829197869406,3.20679694899419,-1.42370484688741,20.2777965908586,-1.79294,-3.810735,68.4795,0.69452,-0.0300142,-0.223524
24.75,6.56611568429512,12.2885345285979,3.22045902233401,-1.41005777640772,20.2870500053877,-1.79294,-3.810735,68.4795,0.69452,-0.0300142,-0.223524
25,6.58604796875,12.29403203125,3.233977796875,-1.3965696874999,20.296373671875,-1.79294,-3.810735,68.4795,0.69452,-0.0300142,-0.223524
25.25,6.60528281882637,12.2994147023478,3.24736173688714,-1.38323960890459,20.3057656898796,-1.79294,-3.810735,68.4795,0.69452,-0.0300142,-0.223524
25.5,6.62382942247187,12.3046849269406,3.26061922791919,-1.3700665693624,20.3152241542936,-1.79294,-3.810735,68.4795,0.69452,-0.0300142,-0.223524
25.75,6.64169691134199,12.309845067676,3.2737585767987,-1.35704959761396,20.3247471553419,-1.79294,-3.810735,68.4795,0.69452,-0.0300142,-0.223524
26,6.6588943608,12.3148974648,3.286788011632,-1.34418772239989,20.3343327785824,-1.79294,-3.810735,68.4795,0.69452,-0.0300142,-0.223524
26.25,6.67543078991699,12.3198444361572,3.2997156818042,-1.33147997246082,20.3439791049058,-1.79294,-3.810735,68.4795,0.69452,-0.0300142,-0.223524
26.5,6.69131516147188,12.3246882771906,3.31254965797919,-1.31892537653738,20.3536842105356,-1.79294,-3.810735,68.4795,0.69452,-0.0300142,-0.223524
26.75,6.70655638195137,12.3294312609416,3.32529793209964,-1.30652296337019,20.3634461670283,-1.79294,-3.810735,68.4795,0.69452,-0.0300142,-0.223524
27,6.72116330155,12.33407563805,3.337968417387,-1.29427176169987,20.3732630412734,-1.79294,-3.810735,68.4795,0.69452,-0.0300142,-0.223524
27.25,6.73514471417012,12.3386236367541,3.35056894834151,-1.28217080026705,20.383132895493,-1.79294,-3.810735,68.4795,0.69452,-0.0300142,-0.223524
27.5,6.74850935742188,12.3430774628906,3.36310728074219,-1.27021910781236,20.3930537872422,-1.79294,-3.810735,68.4795,0.69452,-0.0300142,-0.223524
27.75,6.76126591262324,12.3474392998947,3.37559109164683,-1.25841571307642,20.403023769409,-1.79294,-3.810735,68.4795,0.69452,-0.0300142,-0.223524
28,6.7734230048,12.3517113088,3.388027979392,-1.24675964479985,20.4130408902144,-1.79294,-3.810735,68.4795,0.69452,-0.0300142,-0.223524
28.25,6.78498920268574,12.3558956282385,3.40042546359308,-1.23524993172328,20.423103193212,-1.79294,-3.810735,68.4795,0.69452,-0.0300142,-0.223524
28.5,6.79597301872187,12.3599943744406,3.41279098514419,-1.22388560258734,20.4332087172886,-1.79294,-3.810735,68.4795,0.69452,-0.0300142,-0.223524
28.75,6.80638290905762,12.3640096412353,3.42513190621826,-1.21266568613265,20.4433554966636,-1.79294,-3.810735,68.4795,0.69452,-0.0300142,-0.223524
29,6.81622727355,12.36794350005,3.437455510267,-1.20158921109983,20.4535415608894,-1.79294,-3.810735,68.4795,0.69452,-0.0300142,-0.223524
29.25,6.82551445576387,12.3717979999103,3.44976900202089,-1.19065520622951,20.4637649348513,-1.79294,-3.810735,68.4795,0.69452,-0.0300142,-0.223524
29.5,6.83425274297188,12.3755751674406,3.46207950748919,-1.17986270026232,20.4740236387676,-1.79294,-3.810735,68.4795,0.69452,-0.0300142,-0.223524
29.75,6.84245036615449,12.3792770068635,3.47439407395995,-1.16921072193887,20.4843156881892,-1.79294,-3.810735,68.4795,0.69452,-0.0300142,-0.223524
30,6.8501155,12.3829055,3.48671967,-1.1586982999998,20.494639094,-1.79294,-3.810735,68.4795,0.69452,-0.0300142,-0.223524
30.25,6.85725626290449,12.3864626062697,3.49906318545495,-1.14832446318573,20.5049918624169,-1.79294,-3.810735,68.4795,0.69452,-0.0300142,-0.223524
30.5,6.86388071697188,12.3899502626906,3.51143143144919,-1.13808824023729,20.5153719949896,-1.79294,-3.810735,68.4795,0.69452,-0.0300142,-0.223524
30.75,6.86999686801387,12.3933703838791,3.52383114038589,-1.12798865989509,20.5257774886006,-1.79294,-3.810735,68.4795,0.69452,-0.0300142,-0.223524
31,6.87561266555,12.39672486205,3.536268965947,-1.11802475089977,20.5362063354654,-1.79294,-3.810735,68.4795,0.69452,-0.0300142,-0.223524
31.25,6.88073600280762,12.4000155670166,3.54875148309326,-1.10819554199196,20.5466565231323,-1.79294,-3.810735,68.4795,0.69452,-0.0300142,-0.223524
31.5,6.88537471672188,12.4032443461906,3.56128518806419,-1.09850006191226,20.5571260344826,-1.79294,-3.810735,68.4795,0.69452,-0.0300142,-0.223524
31.75,6.88953658793574,12.4064130245822,3.57387649837808,-1.08893733940132,20.5676128477303,-1.79294,-3.810735,68.4795,0.69452,-0.0300142,-0.223524
32,6.8932293408,12.4095234048,3.586531752832,-1.07950640319974,20.5781149364224,-1.79294,-3.810735,68.4795,0.69452,-0.0300142,-0.223524
32.25,6.89646064337324,12.412577267051,3.59925721150183,-1.07020628204817,20.5886302694388,-1.79294,-3.810735,68.4795,0.69452,-0.0300142,-0.223524
32.5,6.89923810742187,12.4155763691406,3.61205905574219,-1.06103600468723,20.5991568109922,-1.79294,-3.810735,68.4795,0.69452,-0.0300142,-0.223524
32.75,6.90156928842012,12.4185224464728,3.62494338818651,-1.05199459985753,20.6096925206282,-1.79294,-3.810735,68.4795,0.69452,-0.0300142,-0.223524
33,6.90346168555,12.42141721205,3.637916232747,-1.04308109629971,20.6202353532254,-1.79294,-3.810735,68.4795,0.69452,-0.0300142,-0.223524
33.25,6.90492274170137,12.4242623564729,3.65098353461464,-1.03429452275439,20.6307832589951,-1.79294,-3.810735,68.4795,0.69452,-0.0300142,-0.223524
33.5,6.90595984347188,12.4270595479406,3.66415116025919,-1.02563390796219,20.6413341834816,-1.79294,-3.810735,68.4795,0.69452,-0.0300142,-0.223524
33.75,6.906580321167,12.429810432251,3.6774248974292,-1.01709828066375,20.651886067562,-1.79294,-3.810735,68.4795,0.69452,-0.0300142,-0.223524
34,6.9067914488,12.4325166328,3.690810455152,-1.00868666959967,20.6624368474464,-1.79294,-3.810735,68.4795,0.69452,-0.0300142,-0.223524
